TITLE	
DATA TYPE	INFRARED SPECTRUM
ORIGIN	JASCO
OWNER	
DATE	20/01/21
TIME	10:59:54
SPECTROMETER/DATA SYSTEM	
RESOLUTION	
DELTAX	0.964233
XUNITS	1/CM
YUNITS	TRANSMITTANCE
FIRSTX	  399.1927
LASTX	 4000.6047
NPOINTS	    3736
FIRSTY	    95.76181
MAXY	    99.77000
MINY	    86.11848
XYDATA
399.1927	95.7618
400.1569	95.8806
401.1211	96.0042
402.0854	96.1327
403.0496	96.268
404.0138	96.4128
404.9781	96.5692
405.9423	96.738
406.9065	96.9184
407.8708	97.108
408.8350	97.3033
409.7992	97.4929
410.7635	97.6714
411.7277	97.836
412.6919	97.9866
413.6562	98.1247
414.6204	98.2527
415.5846	98.3727
416.5489	98.4864
417.5131	98.5949
418.4773	98.6976
419.4416	98.797
420.4058	98.8915
421.3700	98.9774
422.3343	99.0511
423.2985	99.1105
424.2627	99.1558
425.2270	99.1895
426.1912	99.2159
427.1554	99.2393
428.1197	99.2631
429.0839	99.2883
430.0481	99.3138
431.0124	99.3369
431.9766	99.3549
432.9408	99.3659
433.9051	99.3695
434.8693	99.3661
435.8335	99.3564
436.7978	99.3418
437.7620	99.3238
438.7262	99.3047
439.6905	99.2867
440.6547	99.2712
441.6189	99.2583
442.5832	99.2466
443.5474	99.2332
444.5116	99.215
445.4759	99.1895
446.4401	99.1559
447.4043	99.1151
448.3686	99.0689
449.3328	99.0196
450.2970	98.9685
451.2613	98.9161
452.2255	98.8621
453.1897	98.806
454.1540	98.748
455.1182	98.6882
456.0824	98.6272
457.0467	98.5648
458.0109	98.5005
458.9751	98.4335
459.9394	98.3635
460.9036	98.2915
461.8678	98.2191
462.8321	98.1483
463.7963	98.0808
464.7605	98.0175
465.7248	97.9584
466.6890	97.9033
467.6532	97.8523
468.6175	97.8061
469.5817	97.7652
470.5459	97.7305
471.5102	97.702
472.4744	97.6794
473.4386	97.6618
474.4029	97.6481
475.3671	97.6377
476.3313	97.6303
477.2956	97.6258
478.2598	97.6241
479.2240	97.6251
480.1883	97.6283
481.1525	97.6331
482.1167	97.6391
483.0810	97.6458
484.0452	97.653
485.0094	97.6606
485.9737	97.6683
486.9379	97.6756
487.9021	97.6816
488.8664	97.6855
489.8306	97.6864
490.7948	97.6839
491.7591	97.6785
492.7233	97.6711
493.6875	97.6627
494.6518	97.6543
495.6160	97.6466
496.5802	97.6395
497.5445	97.6327
498.5087	97.6262
499.4729	97.6197
500.4372	97.6137
501.4014	97.6088
502.3656	97.6054
503.3299	97.6036
504.2941	97.6033
505.2583	97.6042
506.2226	97.606
507.1868	97.6091
508.1510	97.6135
509.1153	97.6197
510.0795	97.6277
511.0437	97.6371
512.0080	97.6476
512.9722	97.6593
513.9365	97.6723
514.9007	97.6871
515.8649	97.7045
516.8292	97.7248
517.7934	97.7482
518.7576	97.7738
519.7219	97.8008
520.6861	97.8281
521.6503	97.8551
522.6146	97.8815
523.5788	97.9078
524.5430	97.9345
525.5073	97.9622
526.4715	97.9911
527.4357	98.0209
528.4000	98.0511
529.3642	98.0807
530.3284	98.1087
531.2927	98.1339
532.2569	98.1551
533.2211	98.171
534.1854	98.1803
535.1496	98.1819
536.1138	98.1753
537.0781	98.1603
538.0423	98.1376
539.0065	98.1075
539.9708	98.0706
540.9350	98.027
541.8992	97.9765
542.8635	97.9184
543.8277	97.8522
544.7919	97.7775
545.7562	97.6943
546.7204	97.6031
547.6846	97.5048
548.6489	97.4004
549.6131	97.2911
550.5773	97.1783
551.5416	97.0633
552.5058	96.9475
553.4700	96.8323
554.4343	96.7187
555.3985	96.6079
556.3627	96.5004
557.3270	96.3969
558.2912	96.298
559.2554	96.2046
560.2197	96.1176
561.1839	96.038
562.1481	95.9669
563.1124	95.905
564.0766	95.8527
565.0408	95.8103
566.0051	95.7773
566.9693	95.7534
567.9335	95.738
568.8978	95.7307
569.8620	95.7308
570.8262	95.7379
571.7905	95.7513
572.7547	95.7703
573.7189	95.7943
574.6832	95.8226
575.6474	95.8546
576.6116	95.8896
577.5759	95.9266
578.5401	95.9646
579.5043	96.0021
580.4686	96.0376
581.4328	96.0699
582.3970	96.0981
583.3613	96.1216
584.3255	96.1401
585.2897	96.1534
586.2540	96.1612
587.2182	96.1632
588.1824	96.1591
589.1467	96.1489
590.1109	96.1329
591.0751	96.1116
592.0394	96.0859
593.0036	96.0565
593.9678	96.024
594.9321	95.9892
595.8963	95.953
596.8605	95.9166
597.8248	95.8812
598.7890	95.8484
599.7532	95.8194
600.7175	95.7954
601.6817	95.7771
602.6459	95.7653
603.6102	95.7604
604.5744	95.7628
605.5386	95.7727
606.5029	95.7901
607.4671	95.8148
608.4313	95.8466
609.3956	95.8846
610.3598	95.9283
611.3240	95.9767
612.2883	96.0287
613.2525	96.0833
614.2167	96.1391
615.1810	96.1951
616.1452	96.25
617.1094	96.303
618.0737	96.3533
619.0379	96.4004
620.0021	96.4437
620.9664	96.483
621.9306	96.518
622.8948	96.5488
623.8591	96.5755
624.8233	96.5983
625.7875	96.6174
626.7518	96.6327
627.7160	96.6445
628.6802	96.6528
629.6445	96.658
630.6087	96.661
631.5729	96.6624
632.5372	96.6633
633.5014	96.6643
634.4656	96.6659
635.4299	96.6683
636.3941	96.6717
637.3583	96.6761
638.3226	96.6815
639.2868	96.688
640.2510	96.6957
641.2153	96.7044
642.1795	96.7139
643.1437	96.7243
644.1080	96.7352
645.0722	96.7467
646.0364	96.7585
647.0007	96.7702
647.9649	96.7812
648.9291	96.7909
649.8934	96.7984
650.8576	96.8031
651.8218	96.8052
652.7861	96.8051
653.7503	96.8033
654.7145	96.8
655.6788	96.7955
656.6430	96.7898
657.6072	96.7828
658.5715	96.7743
659.5357	96.7642
660.4999	96.7525
661.4642	96.7392
662.4284	96.7246
663.3926	96.7091
664.3569	96.6933
665.3211	96.6779
666.2853	96.6638
667.2496	96.6521
668.2138	96.6437
669.1780	96.6387
670.1423	96.6367
671.1065	96.6368
672.0707	96.6378
673.0350	96.6392
673.9992	96.6406
674.9634	96.6421
675.9277	96.6437
676.8919	96.6459
677.8561	96.6488
678.8204	96.6529
679.7846	96.6582
680.7488	96.6647
681.7131	96.6721
682.6773	96.6799
683.6415	96.6879
684.6058	96.6958
685.5700	96.7031
686.5342	96.7097
687.4985	96.7157
688.4627	96.7215
689.4269	96.7276
690.3912	96.7347
691.3554	96.743
692.3196	96.7526
693.2839	96.7635
694.2481	96.7758
695.2123	96.7893
696.1766	96.8042
697.1408	96.8203
698.1050	96.8377
699.0693	96.8565
700.0335	96.8768
700.9977	96.8987
701.9620	96.9222
702.9262	96.9472
703.8904	96.9735
704.8547	97.0007
705.8189	97.0286
706.7831	97.057
707.7474	97.0858
708.7116	97.115
709.6758	97.1445
710.6401	97.1743
711.6043	97.2043
712.5685	97.2344
713.5328	97.2643
714.4970	97.2938
715.4612	97.323
716.4255	97.3516
717.3897	97.3795
718.3539	97.4062
719.3182	97.4316
720.2824	97.4553
721.2466	97.4775
722.2109	97.4982
723.1751	97.5178
724.1393	97.5366
725.1036	97.5546
726.0678	97.5718
727.0320	97.5883
727.9963	97.6039
728.9605	97.6187
729.9247	97.6329
730.8890	97.6467
731.8532	97.66
732.8174	97.6727
733.7817	97.6846
734.7459	97.6959
735.7101	97.7065
736.6744	97.717
737.6386	97.7277
738.6028	97.7389
739.5671	97.7508
740.5313	97.7633
741.4955	97.7762
742.4598	97.7893
743.4240	97.8025
744.3882	97.8158
745.3525	97.8293
746.3167	97.8432
747.2809	97.8574
748.2452	97.8718
749.2094	97.8867
750.1736	97.9018
751.1379	97.9174
752.1021	97.9334
753.0663	97.9497
754.0306	97.9662
754.9948	97.9827
755.9590	97.999
756.9233	98.015
757.8875	98.0308
758.8517	98.0464
759.8160	98.0619
760.7802	98.0773
761.7444	98.0928
762.7087	98.1082
763.6729	98.1237
764.6371	98.139
765.6014	98.154
766.5656	98.1687
767.5298	98.1828
768.4941	98.1963
769.4583	98.2093
770.4225	98.222
771.3868	98.2345
772.3510	98.247
773.3152	98.2598
774.2795	98.2728
775.2437	98.2861
776.2079	98.2996
777.1722	98.3131
778.1364	98.3267
779.1006	98.3402
780.0649	98.3536
781.0291	98.3669
781.9933	98.3801
782.9576	98.3935
783.9218	98.4071
784.8860	98.4212
785.8503	98.4359
786.8145	98.4515
787.7787	98.4677
788.7430	98.4847
789.7072	98.5022
790.6714	98.52
791.6357	98.5381
792.5999	98.5565
793.5641	98.575
794.5284	98.5938
795.4926	98.6129
796.4568	98.6325
797.4211	98.6526
798.3853	98.6734
799.3495	98.6948
800.3138	98.7167
801.2780	98.7391
802.2422	98.7619
803.2065	98.785
804.1707	98.8083
805.1349	98.8319
806.0992	98.8558
807.0634	98.8799
808.0276	98.9042
808.9919	98.9288
809.9561	98.9534
810.9203	98.9781
811.8846	99.0025
812.8488	99.0265
813.8130	99.0501
814.7773	99.0731
815.7415	99.0954
816.7057	99.1169
817.6700	99.1376
818.6342	99.1574
819.5984	99.1764
820.5627	99.1944
821.5269	99.2113
822.4911	99.2271
823.4554	99.2416
824.4196	99.2548
825.3839	99.2667
826.3481	99.2774
827.3123	99.287
828.2766	99.2956
829.2408	99.3035
830.2050	99.3105
831.1693	99.3168
832.1335	99.3222
833.0977	99.3268
834.0620	99.3305
835.0262	99.3334
835.9904	99.3353
836.9547	99.3365
837.9189	99.3369
838.8831	99.3366
839.8474	99.3358
840.8116	99.3343
841.7758	99.3322
842.7401	99.3294
843.7043	99.3258
844.6685	99.3214
845.6328	99.316
846.5970	99.3095
847.5612	99.302
848.5255	99.2936
849.4897	99.2844
850.4539	99.2746
851.4182	99.2645
852.3824	99.254
853.3466	99.243
854.3109	99.2314
855.2751	99.2187
856.2393	99.2045
857.2036	99.1886
858.1678	99.1704
859.1320	99.1498
860.0963	99.1265
861.0605	99.1003
862.0247	99.0712
862.9890	99.0392
863.9532	99.0046
864.9174	98.9677
865.8817	98.9289
866.8459	98.8886
867.8101	98.8473
868.7744	98.8053
869.7386	98.7628
870.7028	98.7204
871.6671	98.6785
872.6313	98.6379
873.5955	98.5993
874.5598	98.5639
875.5240	98.5325
876.4882	98.5064
877.4525	98.4864
878.4167	98.4733
879.3809	98.4678
880.3452	98.4702
881.3094	98.4804
882.2736	98.4982
883.2379	98.5229
884.2021	98.5537
885.1663	98.5898
886.1306	98.6304
887.0948	98.6746
888.0590	98.7217
889.0233	98.771
889.9875	98.8221
890.9517	98.874
891.9160	98.9263
892.8802	98.9779
893.8444	99.0281
894.8087	99.0759
895.7729	99.1205
896.7371	99.1614
897.7014	99.198
898.6656	99.2302
899.6298	99.258
900.5941	99.2814
901.5583	99.3009
902.5225	99.3167
903.4868	99.3293
904.4510	99.339
905.4152	99.3461
906.3795	99.351
907.3437	99.354
908.3079	99.3551
909.2722	99.3548
910.2364	99.353
911.2006	99.35
912.1649	99.346
913.1291	99.341
914.0933	99.3351
915.0576	99.3284
916.0218	99.3211
916.9860	99.3132
917.9503	99.3047
918.9145	99.2958
919.8787	99.2865
920.8430	99.2768
921.8072	99.2666
922.7714	99.256
923.7357	99.2448
924.6999	99.2331
925.6641	99.2208
926.6284	99.208
927.5926	99.1946
928.5568	99.1807
929.5211	99.1663
930.4853	99.1516
931.4495	99.1365
932.4138	99.1213
933.3780	99.1057
934.3422	99.0896
935.3065	99.0728
936.2707	99.055
937.2349	99.036
938.1992	99.0157
939.1634	98.9941
940.1276	98.9712
941.0919	98.9469
942.0561	98.9213
943.0203	98.8944
943.9846	98.8661
944.9488	98.8365
945.9130	98.8056
946.8773	98.7735
947.8415	98.7402
948.8057	98.7058
949.7700	98.6705
950.7342	98.6343
951.6984	98.5976
952.6627	98.5606
953.6269	98.5238
954.5911	98.4873
955.5554	98.4513
956.5196	98.4158
957.4838	98.3811
958.4481	98.3472
959.4123	98.3142
960.3765	98.2822
961.3408	98.2513
962.3050	98.2214
963.2692	98.1923
964.2335	98.1639
965.1977	98.1358
966.1619	98.1079
967.1262	98.08
968.0904	98.0517
969.0546	98.0228
970.0189	97.993
970.9831	97.9618
971.9473	97.929
972.9116	97.8944
973.8758	97.8579
974.8400	97.8194
975.8043	97.7787
976.7685	97.7356
977.7327	97.6899
978.6970	97.6413
979.6612	97.5897
980.6254	97.535
981.5897	97.4771
982.5539	97.4162
983.5181	97.3521
984.4824	97.2849
985.4466	97.2145
986.4108	97.1407
987.3751	97.0634
988.3393	96.9824
989.3035	96.8977
990.2678	96.8091
991.2320	96.7165
992.1962	96.6195
993.1605	96.5182
994.1247	96.4122
995.0889	96.3015
996.0532	96.186
997.0174	96.0655
997.9816	95.94
998.9459	95.8094
999.9101	95.6736
1000.8743	95.5326
1001.8386	95.3862
1002.8028	95.2345
1003.7670	95.0775
1004.7313	94.9151
1005.6955	94.7474
1006.6597	94.5746
1007.6240	94.3967
1008.5882	94.2139
1009.5524	94.0264
1010.5167	93.8344
1011.4809	93.6381
1012.4451	93.4378
1013.4094	93.234
1014.3736	93.0269
1015.3378	92.8169
1016.3021	92.6045
1017.2663	92.3901
1018.2305	92.1738
1019.1948	91.9563
1020.1590	91.7377
1021.1232	91.5185
1022.0875	91.2992
1023.0517	91.08
1024.0160	90.8614
1024.9802	90.6437
1025.9445	90.4274
1026.9087	90.2127
1027.8729	90.0002
1028.8372	89.7902
1029.8014	89.5832
1030.7656	89.3795
1031.7299	89.1799
1032.6941	88.9848
1033.6583	88.7951
1034.6226	88.6116
1035.5868	88.4355
1036.5510	88.2679
1037.5153	88.1102
1038.4795	87.9635
1039.4437	87.8292
1040.4080	87.7084
1041.3722	87.6023
1042.3364	87.512
1043.3007	87.4383
1044.2649	87.382
1045.2291	87.3436
1046.1934	87.3236
1047.1576	87.3223
1048.1218	87.3397
1049.0861	87.3757
1050.0503	87.4298
1051.0145	87.5012
1051.9788	87.5888
1052.9430	87.6911
1053.9072	87.8063
1054.8715	87.9325
1055.8357	88.0675
1056.7999	88.209
1057.7642	88.3549
1058.7284	88.503
1059.6926	88.6514
1060.6569	88.7981
1061.6211	88.9417
1062.5853	89.081
1063.5496	89.2148
1064.5138	89.3421
1065.4780	89.4622
1066.4423	89.5741
1067.4065	89.6772
1068.3707	89.7711
1069.3350	89.8556
1070.2992	89.9308
1071.2634	89.997
1072.2277	90.0546
1073.1919	90.1044
1074.1561	90.1471
1075.1204	90.1839
1076.0846	90.2157
1077.0488	90.2436
1078.0131	90.2686
1078.9773	90.2917
1079.9415	90.3136
1080.9058	90.3348
1081.8700	90.3561
1082.8342	90.3779
1083.7985	90.4008
1084.7627	90.4255
1085.7269	90.4528
1086.6912	90.4832
1087.6554	90.5173
1088.6196	90.5557
1089.5839	90.5987
1090.5481	90.6465
1091.5123	90.6994
1092.4766	90.7574
1093.4408	90.8203
1094.4050	90.8877
1095.3693	90.9594
1096.3335	91.035
1097.2977	91.1141
1098.2620	91.1963
1099.2262	91.2813
1100.1904	91.3689
1101.1547	91.4586
1102.1189	91.55
1103.0831	91.6429
1104.0474	91.7368
1105.0116	91.8313
1105.9758	91.9262
1106.9401	92.0211
1107.9043	92.1159
1108.8685	92.2103
1109.8328	92.3043
1110.7970	92.3979
1111.7612	92.4913
1112.7255	92.5846
1113.6897	92.6781
1114.6539	92.7719
1115.6182	92.8661
1116.5824	92.9609
1117.5466	93.0563
1118.5109	93.1524
1119.4751	93.2493
1120.4393	93.3472
1121.4036	93.446
1122.3678	93.5456
1123.3320	93.6461
1124.2963	93.7473
1125.2605	93.8491
1126.2247	93.9512
1127.1890	94.0534
1128.1532	94.1555
1129.1174	94.2571
1130.0817	94.3578
1131.0459	94.4574
1132.0101	94.5556
1132.9744	94.6522
1133.9386	94.7469
1134.9028	94.8394
1135.8671	94.9296
1136.8313	95.0172
1137.7955	95.102
1138.7598	95.1838
1139.7240	95.2623
1140.6882	95.3376
1141.6525	95.4096
1142.6167	95.4782
1143.5809	95.5436
1144.5452	95.6058
1145.5094	95.6652
1146.4736	95.7218
1147.4379	95.7759
1148.4021	95.8277
1149.3663	95.8774
1150.3306	95.9252
1151.2948	95.9711
1152.2590	96.0154
1153.2233	96.0581
1154.1875	96.0996
1155.1517	96.14
1156.1160	96.1795
1157.0802	96.2183
1158.0444	96.2566
1159.0087	96.2946
1159.9729	96.3325
1160.9371	96.3705
1161.9014	96.4088
1162.8656	96.4473
1163.8298	96.4861
1164.7941	96.5251
1165.7583	96.5642
1166.7225	96.6034
1167.6868	96.6427
1168.6510	96.6821
1169.6152	96.7216
1170.5795	96.7614
1171.5437	96.8014
1172.5079	96.8416
1173.4722	96.882
1174.4364	96.9226
1175.4006	96.9634
1176.3649	97.0041
1177.3291	97.0447
1178.2933	97.0851
1179.2576	97.1249
1180.2218	97.1642
1181.1860	97.2027
1182.1503	97.2403
1183.1145	97.2772
1184.0787	97.3132
1185.0430	97.3485
1186.0072	97.3829
1186.9714	97.4165
1187.9357	97.449
1188.8999	97.4803
1189.8641	97.5103
1190.8284	97.5387
1191.7926	97.5655
1192.7568	97.5907
1193.7211	97.6142
1194.6853	97.6362
1195.6495	97.6567
1196.6138	97.676
1197.5780	97.6941
1198.5422	97.7113
1199.5065	97.7275
1200.4707	97.7429
1201.4349	97.7574
1202.3992	97.7712
1203.3634	97.7841
1204.3276	97.7962
1205.2919	97.8075
1206.2561	97.8181
1207.2203	97.8281
1208.1846	97.8375
1209.1488	97.8465
1210.1130	97.8552
1211.0773	97.8634
1212.0415	97.8713
1213.0057	97.8788
1213.9700	97.8857
1214.9342	97.892
1215.8984	97.8976
1216.8627	97.9025
1217.8269	97.9068
1218.7911	97.9103
1219.7554	97.9131
1220.7196	97.9154
1221.6838	97.9171
1222.6481	97.9185
1223.6123	97.9195
1224.5765	97.9203
1225.5408	97.9209
1226.5050	97.9216
1227.4692	97.9224
1228.4335	97.9234
1229.3977	97.9247
1230.3619	97.9263
1231.3262	97.9284
1232.2904	97.9309
1233.2546	97.934
1234.2189	97.9376
1235.1831	97.9417
1236.1473	97.9464
1237.1116	97.9515
1238.0758	97.957
1239.0400	97.9627
1240.0043	97.9686
1240.9685	97.9745
1241.9327	97.9804
1242.8970	97.986
1243.8612	97.9915
1244.8254	97.9965
1245.7897	98.0011
1246.7539	98.0051
1247.7181	98.0085
1248.6824	98.0112
1249.6466	98.0131
1250.6108	98.0142
1251.5751	98.0143
1252.5393	98.0135
1253.5035	98.0117
1254.4678	98.009
1255.4320	98.0056
1256.3962	98.0014
1257.3605	97.9966
1258.3247	97.9913
1259.2889	97.9857
1260.2532	97.9797
1261.2174	97.9735
1262.1816	97.9672
1263.1459	97.9607
1264.1101	97.9542
1265.0743	97.9478
1266.0386	97.9415
1267.0028	97.9355
1267.9670	97.9299
1268.9313	97.9247
1269.8955	97.9202
1270.8597	97.9164
1271.8240	97.9134
1272.7882	97.9113
1273.7524	97.9099
1274.7167	97.9092
1275.6809	97.9092
1276.6451	97.9097
1277.6094	97.9107
1278.5736	97.912
1279.5378	97.9137
1280.5021	97.9156
1281.4663	97.9177
1282.4305	97.9199
1283.3948	97.922
1284.3590	97.924
1285.3232	97.9256
1286.2875	97.9269
1287.2517	97.9277
1288.2159	97.9278
1289.1802	97.927
1290.1444	97.9253
1291.1086	97.9223
1292.0729	97.918
1293.0371	97.9124
1294.0013	97.9053
1294.9656	97.897
1295.9298	97.8874
1296.8940	97.8766
1297.8583	97.8647
1298.8225	97.8515
1299.7867	97.8372
1300.7510	97.8219
1301.7152	97.8056
1302.6794	97.7887
1303.6437	97.7713
1304.6079	97.7538
1305.5721	97.7363
1306.5364	97.7191
1307.5006	97.7024
1308.4648	97.6864
1309.4291	97.6715
1310.3933	97.6578
1311.3575	97.6456
1312.3218	97.6349
1313.2860	97.6259
1314.2502	97.6186
1315.2145	97.6129
1316.1787	97.6088
1317.1429	97.6063
1318.1072	97.6052
1319.0714	97.6053
1320.0356	97.6063
1320.9999	97.6078
1321.9641	97.6097
1322.9283	97.6119
1323.8926	97.6142
1324.8568	97.6167
1325.8210	97.6193
1326.7853	97.6221
1327.7495	97.6248
1328.7137	97.6274
1329.6780	97.6297
1330.6422	97.6316
1331.6064	97.633
1332.5707	97.6338
1333.5349	97.6341
1334.4991	97.6338
1335.4634	97.6332
1336.4276	97.6325
1337.3918	97.632
1338.3561	97.6322
1339.3203	97.633
1340.2845	97.6344
1341.2488	97.6359
1342.2130	97.6368
1343.1772	97.6367
1344.1415	97.6351
1345.1057	97.6318
1346.0699	97.627
1347.0342	97.6208
1347.9984	97.6133
1348.9626	97.6044
1349.9269	97.5942
1350.8911	97.5826
1351.8553	97.5695
1352.8196	97.5548
1353.7838	97.5381
1354.7480	97.5194
1355.7123	97.4984
1356.6765	97.4749
1357.6407	97.449
1358.6050	97.4211
1359.5692	97.3917
1360.5334	97.3614
1361.4977	97.3309
1362.4619	97.3002
1363.4261	97.2694
1364.3904	97.2378
1365.3546	97.2051
1366.3188	97.1706
1367.2831	97.1343
1368.2473	97.0964
1369.2115	97.0573
1370.1758	97.0178
1371.1400	96.9786
1372.1042	96.9403
1373.0685	96.9033
1374.0327	96.8678
1374.9969	96.8336
1375.9612	96.8006
1376.9254	96.7683
1377.8896	96.7364
1378.8539	96.705
1379.8181	96.674
1380.7823	96.6439
1381.7466	96.6153
1382.7108	96.589
1383.6750	96.5658
1384.6393	96.5464
1385.6035	96.531
1386.5677	96.5193
1387.5320	96.5107
1388.4962	96.5043
1389.4604	96.499
1390.4247	96.4944
1391.3889	96.4899
1392.3531	96.4858
1393.3174	96.4822
1394.2816	96.4796
1395.2458	96.4784
1396.2101	96.4784
1397.1743	96.4796
1398.1385	96.4811
1399.1028	96.4824
1400.0670	96.4827
1401.0313	96.4817
1401.9955	96.4792
1402.9597	96.4755
1403.9240	96.4706
1404.8882	96.4649
1405.8524	96.4586
1406.8167	96.4521
1407.7809	96.4455
1408.7451	96.4391
1409.7094	96.433
1410.6736	96.4272
1411.6378	96.4215
1412.6021	96.4161
1413.5663	96.4107
1414.5305	96.4057
1415.4948	96.4014
1416.4590	96.3985
1417.4232	96.3974
1418.3875	96.3988
1419.3517	96.4028
1420.3159	96.4093
1421.2802	96.4179
1422.2444	96.4282
1423.2086	96.4401
1424.1729	96.4533
1425.1371	96.4678
1426.1013	96.4834
1427.0656	96.4998
1428.0298	96.5166
1428.9940	96.5337
1429.9583	96.5506
1430.9225	96.5671
1431.8867	96.5831
1432.8510	96.5984
1433.8152	96.6129
1434.7794	96.6262
1435.7437	96.6376
1436.7079	96.6464
1437.6721	96.6516
1438.6364	96.6526
1439.6006	96.6498
1440.5648	96.6438
1441.5291	96.6354
1442.4933	96.6251
1443.4575	96.6134
1444.4218	96.6007
1445.3860	96.5872
1446.3502	96.5738
1447.3145	96.5609
1448.2787	96.5492
1449.2429	96.5388
1450.2072	96.5297
1451.1714	96.5217
1452.1356	96.5147
1453.0999	96.509
1454.0641	96.5052
1455.0283	96.5047
1455.9926	96.5088
1456.9568	96.5182
1457.9210	96.5326
1458.8853	96.5507
1459.8495	96.5712
1460.8137	96.5937
1461.7780	96.6177
1462.7422	96.6434
1463.7064	96.6707
1464.6707	96.6992
1465.6349	96.7283
1466.5991	96.7574
1467.5634	96.7859
1468.5276	96.8138
1469.4918	96.8413
1470.4561	96.8687
1471.4203	96.8965
1472.3845	96.9248
1473.3488	96.9533
1474.3130	96.9813
1475.2772	97.0081
1476.2415	97.0335
1477.2057	97.0576
1478.1699	97.0808
1479.1342	97.1034
1480.0984	97.1257
1481.0626	97.1476
1482.0269	97.1693
1482.9911	97.1907
1483.9553	97.2117
1484.9196	97.2326
1485.8838	97.2532
1486.8480	97.2738
1487.8123	97.294
1488.7765	97.3137
1489.7407	97.3326
1490.7050	97.3502
1491.6692	97.3662
1492.6334	97.3806
1493.5977	97.3936
1494.5619	97.4055
1495.5261	97.4167
1496.4904	97.4272
1497.4546	97.4367
1498.4188	97.4445
1499.3831	97.4499
1500.3473	97.4527
1501.3115	97.4528
1502.2758	97.4509
1503.2400	97.4479
1504.2042	97.4449
1505.1685	97.4428
1506.1327	97.4422
1507.0969	97.4433
1508.0612	97.4455
1509.0254	97.4483
1509.9896	97.4513
1510.9539	97.4546
1511.9181	97.4578
1512.8823	97.4612
1513.8466	97.4646
1514.8108	97.4684
1515.7750	97.4732
1516.7393	97.4796
1517.7035	97.488
1518.6677	97.4986
1519.6320	97.5109
1520.5962	97.5241
1521.5604	97.537
1522.5247	97.5488
1523.4889	97.5588
1524.4531	97.5668
1525.4174	97.5727
1526.3816	97.5768
1527.3458	97.5794
1528.3101	97.5809
1529.2743	97.5814
1530.2385	97.581
1531.2028	97.5798
1532.1670	97.5776
1533.1312	97.5743
1534.0955	97.5694
1535.0597	97.5625
1536.0239	97.5533
1536.9882	97.542
1537.9524	97.5287
1538.9166	97.514
1539.8809	97.4983
1540.8451	97.4824
1541.8093	97.4665
1542.7736	97.4509
1543.7378	97.4353
1544.7020	97.4198
1545.6663	97.404
1546.6305	97.3876
1547.5947	97.3703
1548.5590	97.3519
1549.5232	97.3325
1550.4874	97.3122
1551.4517	97.2913
1552.4159	97.2701
1553.3801	97.2489
1554.3444	97.2278
1555.3086	97.2069
1556.2728	97.1864
1557.2371	97.1665
1558.2013	97.147
1559.1655	97.1272
1560.1298	97.1055
1561.0940	97.0811
1562.0582	97.0535
1563.0225	97.0228
1563.9867	96.9896
1564.9509	96.9544
1565.9152	96.918
1566.8794	96.8809
1567.8436	96.843
1568.8079	96.8043
1569.7721	96.7643
1570.7363	96.7225
1571.7006	96.679
1572.6648	96.6338
1573.6290	96.5871
1574.5933	96.5392
1575.5575	96.4898
1576.5217	96.439
1577.4860	96.3869
1578.4502	96.3339
1579.4144	96.2808
1580.3787	96.228
1581.3429	96.1755
1582.3071	96.1235
1583.2714	96.0717
1584.2356	96.0199
1585.1998	95.9677
1586.1641	95.915
1587.1283	95.8619
1588.0925	95.8086
1589.0568	95.7551
1590.0210	95.7017
1590.9852	95.6481
1591.9495	95.5942
1592.9137	95.5398
1593.8779	95.4845
1594.8422	95.4283
1595.8064	95.3709
1596.7706	95.3125
1597.7349	95.253
1598.6991	95.1926
1599.6633	95.1313
1600.6276	95.0693
1601.5918	95.0063
1602.5560	94.9422
1603.5203	94.8767
1604.4845	94.8097
1605.4487	94.7413
1606.4130	94.6716
1607.3772	94.6011
1608.3414	94.53
1609.3057	94.4582
1610.2699	94.3859
1611.2341	94.3133
1612.1984	94.2405
1613.1626	94.1682
1614.1268	94.0966
1615.0911	94.026
1616.0553	93.9565
1617.0195	93.888
1617.9838	93.8206
1618.9480	93.7548
1619.9122	93.6916
1620.8765	93.6316
1621.8407	93.5756
1622.8049	93.5239
1623.7692	93.4762
1624.7334	93.4322
1625.6976	93.3912
1626.6619	93.3531
1627.6261	93.3178
1628.5903	93.2859
1629.5546	93.2578
1630.5188	93.2338
1631.4830	93.2142
1632.4473	93.1988
1633.4115	93.1877
1634.3757	93.1815
1635.3400	93.1807
1636.3042	93.1858
1637.2684	93.1965
1638.2327	93.2121
1639.1969	93.2315
1640.1611	93.2542
1641.1254	93.28
1642.0896	93.3089
1643.0538	93.3418
1644.0181	93.3795
1644.9823	93.4227
1645.9465	93.4716
1646.9108	93.5253
1647.8750	93.5827
1648.8392	93.6426
1649.8035	93.7049
1650.7677	93.7698
1651.7319	93.838
1652.6962	93.9096
1653.6604	93.9833
1654.6246	94.0574
1655.5889	94.1304
1656.5531	94.2023
1657.5173	94.2739
1658.4816	94.3462
1659.4458	94.4199
1660.4100	94.4951
1661.3743	94.5711
1662.3385	94.6466
1663.3027	94.7199
1664.2670	94.7904
1665.2312	94.8585
1666.1954	94.9259
1667.1597	94.9944
1668.1239	95.0651
1669.0881	95.1377
1670.0524	95.2113
1671.0166	95.2848
1671.9808	95.3582
1672.9451	95.4322
1673.9093	95.5076
1674.8735	95.5842
1675.8378	95.6613
1676.8020	95.7376
1677.7662	95.8123
1678.7305	95.8851
1679.6947	95.9568
1680.6589	96.0288
1681.6232	96.103
1682.5874	96.1805
1683.5516	96.2612
1684.5159	96.3434
1685.4801	96.4246
1686.4443	96.503
1687.4086	96.5781
1688.3728	96.6501
1689.3370	96.7199
1690.3013	96.7881
1691.2655	96.855
1692.2297	96.9207
1693.1940	96.9854
1694.1582	97.049
1695.1224	97.1119
1696.0867	97.174
1697.0509	97.2349
1698.0151	97.2942
1698.9794	97.3512
1699.9436	97.4053
1700.9078	97.4559
1701.8721	97.503
1702.8363	97.5473
1703.8005	97.5895
1704.7648	97.6305
1705.7290	97.6706
1706.6932	97.7095
1707.6575	97.747
1708.6217	97.7825
1709.5859	97.8158
1710.5502	97.847
1711.5144	97.8759
1712.4786	97.9027
1713.4429	97.9278
1714.4071	97.9519
1715.3713	97.9756
1716.3356	97.9997
1717.2998	98.0244
1718.2640	98.0489
1719.2283	98.0724
1720.1925	98.0945
1721.1567	98.1148
1722.1210	98.1335
1723.0852	98.1508
1724.0494	98.1669
1725.0137	98.1818
1725.9779	98.1957
1726.9421	98.2085
1727.9064	98.2203
1728.8706	98.2313
1729.8348	98.2419
1730.7991	98.2526
1731.7633	98.2638
1732.7275	98.2758
1733.6918	98.288
1734.6560	98.2996
1735.6202	98.3098
1736.5845	98.3187
1737.5487	98.3268
1738.5129	98.3347
1739.4772	98.3428
1740.4414	98.3512
1741.4056	98.3598
1742.3699	98.3688
1743.3341	98.3783
1744.2983	98.3888
1745.2626	98.4009
1746.2268	98.415
1747.1910	98.4312
1748.1553	98.4492
1749.1195	98.4683
1750.0837	98.4875
1751.0480	98.5059
1752.0122	98.5229
1752.9764	98.5387
1753.9407	98.5539
1754.9049	98.5695
1755.8691	98.5858
1756.8334	98.6032
1757.7976	98.6215
1758.7618	98.6405
1759.7261	98.66
1760.6903	98.6796
1761.6545	98.6988
1762.6188	98.7171
1763.5830	98.734
1764.5472	98.7493
1765.5115	98.7629
1766.4757	98.7752
1767.4399	98.7867
1768.4042	98.7982
1769.3684	98.8103
1770.3326	98.8232
1771.2969	98.8368
1772.2611	98.85
1773.2253	98.8621
1774.1896	98.8724
1775.1538	98.8808
1776.1180	98.8877
1777.0823	98.8936
1778.0465	98.8988
1779.0107	98.9035
1779.9750	98.908
1780.9392	98.9122
1781.9034	98.9162
1782.8677	98.9201
1783.8319	98.9239
1784.7961	98.9274
1785.7604	98.9303
1786.7246	98.9325
1787.6888	98.9339
1788.6531	98.9349
1789.6173	98.936
1790.5815	98.9381
1791.5458	98.9417
1792.5100	98.9468
1793.4742	98.9532
1794.4385	98.9602
1795.4027	98.9676
1796.3669	98.975
1797.3312	98.9827
1798.2954	98.9909
1799.2596	98.9998
1800.2239	99.0096
1801.1881	99.02
1802.1523	99.0309
1803.1166	99.0417
1804.0808	99.0523
1805.0450	99.0622
1806.0093	99.0715
1806.9735	99.0798
1807.9377	99.0872
1808.9020	99.0936
1809.8662	99.099
1810.8304	99.1034
1811.7947	99.1071
1812.7589	99.1104
1813.7231	99.1136
1814.6874	99.1167
1815.6516	99.1196
1816.6158	99.1222
1817.5801	99.1242
1818.5443	99.1255
1819.5085	99.1262
1820.4728	99.1264
1821.4370	99.1266
1822.4012	99.1268
1823.3655	99.1272
1824.3297	99.1278
1825.2939	99.1285
1826.2582	99.1294
1827.2224	99.1308
1828.1866	99.1327
1829.1509	99.1353
1830.1151	99.1385
1831.0793	99.1417
1832.0436	99.1448
1833.0078	99.1475
1833.9720	99.1498
1834.9363	99.1519
1835.9005	99.1541
1836.8647	99.1562
1837.8290	99.1584
1838.7932	99.1605
1839.7574	99.1626
1840.7217	99.1649
1841.6859	99.1678
1842.6501	99.1716
1843.6144	99.1763
1844.5786	99.1816
1845.5428	99.187
1846.5071	99.1917
1847.4713	99.1953
1848.4355	99.1976
1849.3998	99.1989
1850.3640	99.1994
1851.3282	99.1994
1852.2925	99.1992
1853.2567	99.1989
1854.2209	99.1985
1855.1852	99.1981
1856.1494	99.1977
1857.1136	99.1973
1858.0779	99.197
1859.0421	99.1964
1860.0063	99.1955
1860.9706	99.194
1861.9348	99.1918
1862.8990	99.1891
1863.8633	99.1863
1864.8275	99.1841
1865.7917	99.1829
1866.7560	99.1832
1867.7202	99.1851
1868.6844	99.1883
1869.6487	99.1922
1870.6129	99.1962
1871.5771	99.1999
1872.5414	99.2031
1873.5056	99.2059
1874.4698	99.2084
1875.4341	99.2106
1876.3983	99.2126
1877.3625	99.2144
1878.3268	99.2159
1879.2910	99.2171
1880.2552	99.2182
1881.2195	99.2191
1882.1837	99.2199
1883.1479	99.2202
1884.1122	99.22
1885.0764	99.2191
1886.0406	99.2176
1887.0049	99.2158
1887.9691	99.214
1888.9333	99.2126
1889.8976	99.2117
1890.8618	99.2111
1891.8260	99.2107
1892.7903	99.2104
1893.7545	99.2103
1894.7188	99.2103
1895.6830	99.2104
1896.6472	99.2104
1897.6115	99.2101
1898.5757	99.2095
1899.5399	99.2084
1900.5042	99.207
1901.4684	99.2054
1902.4326	99.2034
1903.3969	99.201
1904.3611	99.1982
1905.3253	99.1947
1906.2896	99.1907
1907.2538	99.1866
1908.2180	99.1825
1909.1823	99.1786
1910.1465	99.175
1911.1107	99.1716
1912.0750	99.1681
1913.0392	99.1646
1914.0034	99.1611
1914.9677	99.158
1915.9319	99.1554
1916.8961	99.1537
1917.8604	99.1527
1918.8246	99.1523
1919.7888	99.1525
1920.7531	99.1531
1921.7173	99.1541
1922.6815	99.1554
1923.6458	99.157
1924.6100	99.1586
1925.5742	99.1601
1926.5385	99.1615
1927.5027	99.1625
1928.4669	99.1634
1929.4312	99.1643
1930.3954	99.1652
1931.3596	99.1662
1932.3239	99.1672
1933.2881	99.1681
1934.2523	99.1688
1935.2166	99.1691
1936.1808	99.1689
1937.1450	99.1683
1938.1093	99.1675
1939.0735	99.1667
1940.0377	99.1662
1941.0020	99.1661
1941.9662	99.1666
1942.9304	99.1677
1943.8947	99.1693
1944.8589	99.171
1945.8231	99.1727
1946.7874	99.1741
1947.7516	99.1751
1948.7158	99.1757
1949.6801	99.1761
1950.6443	99.1762
1951.6085	99.1764
1952.5728	99.1766
1953.5370	99.177
1954.5012	99.1776
1955.4655	99.1785
1956.4297	99.1795
1957.3939	99.1805
1958.3582	99.1812
1959.3224	99.1815
1960.2866	99.1811
1961.2509	99.1802
1962.2151	99.1788
1963.1793	99.1775
1964.1436	99.1763
1965.1078	99.1758
1966.0720	99.1758
1967.0363	99.1765
1968.0005	99.1776
1968.9647	99.1788
1969.9290	99.1798
1970.8932	99.1804
1971.8574	99.1804
1972.8217	99.1797
1973.7859	99.1784
1974.7501	99.1766
1975.7144	99.1745
1976.6786	99.1722
1977.6428	99.1701
1978.6071	99.168
1979.5713	99.1661
1980.5355	99.1641
1981.4998	99.1621
1982.4640	99.1598
1983.4282	99.1572
1984.3925	99.1541
1985.3567	99.1506
1986.3209	99.1468
1987.2852	99.1431
1988.2494	99.1395
1989.2136	99.1365
1990.1779	99.1342
1991.1421	99.1326
1992.1063	99.1318
1993.0706	99.1315
1994.0348	99.1315
1994.9990	99.1315
1995.9633	99.1315
1996.9275	99.1313
1997.8917	99.1309
1998.8560	99.1302
1999.8202	99.1294
2000.7844	99.1285
2001.7487	99.1276
2002.7129	99.1267
2003.6771	99.1259
2004.6414	99.1252
2005.6056	99.1244
2006.5698	99.1235
2007.5341	99.1226
2008.4983	99.1213
2009.4625	99.1198
2010.4268	99.118
2011.3910	99.1161
2012.3552	99.1141
2013.3195	99.1121
2014.2837	99.1103
2015.2479	99.1087
2016.2122	99.1076
2017.1764	99.1068
2018.1406	99.1065
2019.1049	99.1063
2020.0691	99.1064
2021.0333	99.1065
2021.9976	99.1067
2022.9618	99.1067
2023.9260	99.1066
2024.8903	99.1064
2025.8545	99.1061
2026.8187	99.1057
2027.7830	99.1053
2028.7472	99.1047
2029.7114	99.104
2030.6757	99.1032
2031.6399	99.1023
2032.6041	99.1013
2033.5684	99.1002
2034.5326	99.099
2035.4968	99.0976
2036.4611	99.0959
2037.4253	99.0942
2038.3895	99.0924
2039.3538	99.0906
2040.3180	99.0889
2041.2822	99.0875
2042.2465	99.0863
2043.2107	99.0852
2044.1749	99.0843
2045.1392	99.0835
2046.1034	99.0828
2047.0676	99.0821
2048.0320	99.0816
2048.9961	99.0811
2049.9604	99.0807
2050.9246	99.0804
2051.8889	99.0802
2052.8530	99.0799
2053.8174	99.0797
2054.7815	99.0794
2055.7458	99.0793
2056.7100	99.0791
2057.6743	99.0789
2058.6384	99.0786
2059.6028	99.0783
2060.5669	99.0779
2061.5313	99.0775
2062.4954	99.0772
2063.4597	99.077
2064.4238	99.077
2065.3882	99.0771
2066.3523	99.0774
2067.3167	99.0777
2068.2808	99.0781
2069.2451	99.0784
2070.2092	99.0788
2071.1736	99.0792
2072.1377	99.0797
2073.1021	99.0803
2074.0662	99.0811
2075.0305	99.0819
2075.9946	99.083
2076.9590	99.0843
2077.9231	99.0857
2078.8875	99.0872
2079.8516	99.0889
2080.8159	99.0906
2081.7800	99.0923
2082.7444	99.094
2083.7085	99.0957
2084.6729	99.0974
2085.6370	99.0991
2086.6013	99.101
2087.5654	99.1029
2088.5298	99.1049
2089.4939	99.1071
2090.4583	99.1093
2091.4224	99.1115
2092.3867	99.1137
2093.3508	99.1159
2094.3152	99.118
2095.2793	99.1199
2096.2437	99.1216
2097.2078	99.1232
2098.1721	99.1246
2099.1362	99.1258
2100.1006	99.1269
2101.0647	99.1278
2102.0291	99.1287
2102.9932	99.1295
2103.9575	99.1303
2104.9216	99.1311
2105.8860	99.1318
2106.8501	99.1326
2107.8145	99.1333
2108.7786	99.134
2109.7429	99.1346
2110.7070	99.1351
2111.6714	99.1356
2112.6355	99.136
2113.5999	99.1365
2114.5640	99.137
2115.5283	99.1377
2116.4924	99.1384
2117.4568	99.1393
2118.4209	99.1402
2119.3853	99.1411
2120.3494	99.1421
2121.3137	99.143
2122.2778	99.1439
2123.2422	99.1447
2124.2063	99.1455
2125.1707	99.1461
2126.1348	99.1467
2127.0991	99.1473
2128.0632	99.1479
2129.0276	99.1485
2129.9917	99.1493
2130.9561	99.1501
2131.9202	99.151
2132.8845	99.1521
2133.8486	99.1533
2134.8130	99.1546
2135.7771	99.156
2136.7415	99.1575
2137.7056	99.1592
2138.6699	99.1611
2139.6340	99.1631
2140.5984	99.1653
2141.5625	99.1677
2142.5269	99.1702
2143.4910	99.1728
2144.4553	99.1756
2145.4194	99.1784
2146.3838	99.1814
2147.3479	99.1846
2148.3123	99.1878
2149.2764	99.191
2150.2407	99.1942
2151.2048	99.1973
2152.1692	99.2002
2153.1333	99.2029
2154.0977	99.2055
2155.0618	99.2078
2156.0261	99.2101
2156.9902	99.2122
2157.9546	99.2141
2158.9187	99.2161
2159.8831	99.218
2160.8472	99.2199
2161.8115	99.2218
2162.7756	99.2237
2163.7400	99.2256
2164.7041	99.2272
2165.6685	99.2288
2166.6326	99.2302
2167.5969	99.2316
2168.5610	99.2329
2169.5254	99.2344
2170.4895	99.2361
2171.4539	99.2379
2172.4180	99.2399
2173.3823	99.2422
2174.3464	99.2447
2175.3108	99.2473
2176.2749	99.2501
2177.2393	99.2528
2178.2034	99.2556
2179.1677	99.2583
2180.1318	99.261
2181.0962	99.2637
2182.0603	99.2665
2183.0247	99.2694
2183.9888	99.2724
2184.9531	99.2755
2185.9172	99.2787
2186.8816	99.282
2187.8457	99.2852
2188.8101	99.2884
2189.7742	99.2914
2190.7385	99.2943
2191.7026	99.297
2192.6670	99.2995
2193.6311	99.3019
2194.5955	99.3042
2195.5596	99.3064
2196.5239	99.3085
2197.4880	99.3106
2198.4524	99.3126
2199.4165	99.3145
2200.3809	99.3162
2201.3450	99.3179
2202.3093	99.3196
2203.2734	99.3211
2204.2378	99.3226
2205.2019	99.3241
2206.1663	99.3256
2207.1304	99.327
2208.0947	99.3286
2209.0588	99.3301
2210.0232	99.3318
2210.9873	99.3334
2211.9517	99.3351
2212.9158	99.3367
2213.8801	99.3384
2214.8442	99.3401
2215.8086	99.342
2216.7727	99.3439
2217.7371	99.3459
2218.7012	99.348
2219.6655	99.35
2220.6296	99.352
2221.5940	99.3539
2222.5581	99.3557
2223.5225	99.3573
2224.4866	99.3592
2225.4509	99.361
2226.4150	99.3629
2227.3794	99.3647
2228.3435	99.3666
2229.3079	99.3685
2230.2720	99.3703
2231.2363	99.3722
2232.2004	99.374
2233.1648	99.3759
2234.1289	99.3778
2235.0933	99.3796
2236.0574	99.3815
2237.0217	99.3834
2237.9858	99.3852
2238.9502	99.3871
2239.9143	99.3889
2240.8787	99.3908
2241.8428	99.3927
2242.8071	99.3945
2243.7712	99.3964
2244.7356	99.3982
2245.6997	99.4001
2246.6641	99.402
2247.6282	99.4038
2248.5925	99.4057
2249.5566	99.4076
2250.5210	99.4094
2251.4851	99.4113
2252.4495	99.4132
2253.4136	99.415
2254.3779	99.4169
2255.3420	99.4187
2256.3064	99.4206
2257.2705	99.4225
2258.2349	99.4243
2259.1990	99.4262
2260.1633	99.4281
2261.1274	99.4299
2262.0918	99.4318
2263.0559	99.4337
2264.0203	99.4355
2264.9844	99.4374
2265.9487	99.4393
2266.9128	99.4411
2267.8772	99.443
2268.8413	99.4449
2269.8057	99.4467
2270.7698	99.4486
2271.7341	99.4505
2272.6982	99.4523
2273.6626	99.4542
2274.6267	99.4561
2275.5911	99.4579
2276.5552	99.4598
2277.5195	99.4617
2278.4836	99.4635
2279.4480	99.4654
2280.4121	99.4673
2281.3765	99.4691
2282.3406	99.471
2283.3049	99.4729
2284.2690	99.4747
2285.2334	99.4766
2286.1975	99.4785
2287.1619	99.4804
2288.1260	99.4822
2289.0903	99.4841
2290.0544	99.486
2291.0188	99.4878
2291.9829	99.4897
2292.9473	99.4916
2293.9114	99.4934
2294.8757	99.4953
2295.8398	99.4972
2296.8042	99.4991
2297.7683	99.5009
2298.7327	99.5028
2299.6968	99.5047
2300.6611	99.5065
2301.6252	99.5084
2302.5896	99.5103
2303.5537	99.5122
2304.5181	99.514
2305.4822	99.5159
2306.4465	99.5178
2307.4106	99.5196
2308.3750	99.5215
2309.3391	99.5234
2310.3035	99.5253
2311.2676	99.5271
2312.2319	99.529
2313.1960	99.5309
2314.1604	99.5327
2315.1245	99.5346
2316.0889	99.5365
2317.0530	99.5384
2318.0173	99.5402
2318.9814	99.5421
2319.9458	99.544
2320.9099	99.5459
2321.8743	99.5477
2322.8384	99.5496
2323.8027	99.5515
2324.7668	99.5534
2325.7312	99.5552
2326.6953	99.5571
2327.6597	99.559
2328.6238	99.5609
2329.5881	99.5627
2330.5522	99.5646
2331.5166	99.5665
2332.4807	99.5684
2333.4451	99.5703
2334.4092	99.5721
2335.3735	99.574
2336.3376	99.5759
2337.3020	99.5778
2338.2661	99.5796
2339.2305	99.5815
2340.1946	99.5834
2341.1589	99.5853
2342.1230	99.5872
2343.0874	99.589
2344.0515	99.5909
2345.0159	99.5928
2345.9800	99.5947
2346.9443	99.5965
2347.9084	99.5984
2348.8728	99.6003
2349.8369	99.6022
2350.8013	99.604
2351.7654	99.6059
2352.7297	99.6078
2353.6938	99.6097
2354.6582	99.6116
2355.6223	99.6134
2356.5867	99.6153
2357.5508	99.6172
2358.5151	99.6191
2359.4792	99.621
2360.4436	99.6228
2361.4077	99.6247
2362.3721	99.6266
2363.3362	99.6285
2364.3005	99.6304
2365.2646	99.6323
2366.2290	99.6341
2367.1931	99.636
2368.1575	99.6379
2369.1216	99.6398
2370.0859	99.6417
2371.0500	99.6435
2372.0144	99.6454
2372.9785	99.6473
2373.9429	99.6492
2374.9070	99.6511
2375.8713	99.653
2376.8354	99.6548
2377.7998	99.6567
2378.7639	99.6586
2379.7283	99.6605
2380.6924	99.6624
2381.6567	99.6643
2382.6208	99.6661
2383.5852	99.668
2384.5493	99.6699
2385.5137	99.6718
2386.4778	99.6737
2387.4421	99.6756
2388.4063	99.6775
2389.3706	99.6793
2390.3347	99.6812
2391.2991	99.6831
2392.2632	99.685
2393.2275	99.6869
2394.1917	99.6888
2395.1560	99.6907
2396.1201	99.6925
2397.0845	99.6944
2398.0486	99.6963
2399.0129	99.6982
2399.9771	99.7001
2400.9414	99.702
2401.9055	99.7039
2402.8699	99.7057
2403.8340	99.7076
2404.7983	99.7095
2405.7625	99.7114
2406.7268	99.7133
2407.6909	99.7152
2408.6553	99.7171
2409.6194	99.719
2410.5837	99.7208
2411.5479	99.7227
2412.5122	99.7246
2413.4763	99.7265
2414.4407	99.7284
2415.4048	99.7303
2416.3691	99.7322
2417.3333	99.7341
2418.2976	99.736
2419.2617	99.7379
2420.2261	99.7397
2421.1902	99.7416
2422.1545	99.7435
2423.1187	99.7454
2424.0830	99.7473
2425.0471	99.7492
2426.0115	99.7511
2426.9756	99.753
2427.9399	99.7549
2428.9041	99.7568
2429.8684	99.7587
2430.8325	99.7605
2431.7969	99.7624
2432.7610	99.7643
2433.7253	99.7662
2434.6895	99.7681
2435.6538	99.77
2436.6179	99.7688
2437.5823	99.7677
2438.5464	99.7667
2439.5107	99.7658
2440.4749	99.7649
2441.4392	99.7638
2442.4033	99.7626
2443.3677	99.7612
2444.3318	99.7597
2445.2961	99.7581
2446.2603	99.7565
2447.2246	99.7549
2448.1887	99.7532
2449.1531	99.7514
2450.1172	99.7495
2451.0815	99.7477
2452.0457	99.7458
2453.0100	99.744
2453.9741	99.7422
2454.9385	99.7404
2455.9026	99.7384
2456.8669	99.7361
2457.8311	99.7336
2458.7954	99.7309
2459.7595	99.7281
2460.7239	99.7253
2461.6880	99.7226
2462.6523	99.7199
2463.6165	99.7171
2464.5808	99.7141
2465.5449	99.7111
2466.5093	99.7081
2467.4734	99.705
2468.4377	99.7021
2469.4019	99.6993
2470.3662	99.6965
2471.3303	99.6936
2472.2947	99.6906
2473.2588	99.6875
2474.2231	99.6843
2475.1873	99.6811
2476.1516	99.6781
2477.1157	99.6752
2478.0801	99.6724
2479.0442	99.6696
2480.0085	99.6667
2480.9727	99.6638
2481.9370	99.6609
2482.9011	99.658
2483.8655	99.6552
2484.8296	99.6525
2485.7939	99.6498
2486.7581	99.647
2487.7224	99.6442
2488.6865	99.6413
2489.6509	99.6386
2490.6150	99.6362
2491.5793	99.6341
2492.5435	99.6325
2493.5078	99.6311
2494.4719	99.63
2495.4363	99.6291
2496.4004	99.6283
2497.3647	99.6276
2498.3289	99.6272
2499.2932	99.627
2500.2573	99.6272
2501.2217	99.6275
2502.1858	99.6281
2503.1501	99.6289
2504.1143	99.6299
2505.0786	99.6312
2506.0427	99.6327
2507.0071	99.6345
2507.9712	99.6364
2508.9355	99.6385
2509.8997	99.6404
2510.8640	99.6423
2511.8281	99.644
2512.7925	99.6456
2513.7566	99.6472
2514.7209	99.6489
2515.6851	99.6508
2516.6494	99.6527
2517.6135	99.6547
2518.5779	99.6566
2519.5420	99.6584
2520.5063	99.6602
2521.4705	99.6619
2522.4348	99.6637
2523.3989	99.6655
2524.3633	99.6673
2525.3274	99.6691
2526.2917	99.6709
2527.2559	99.6726
2528.2202	99.6743
2529.1843	99.676
2530.1487	99.6779
2531.1128	99.6798
2532.0771	99.6818
2533.0413	99.6837
2534.0056	99.6854
2534.9697	99.6871
2535.9341	99.6886
2536.8982	99.6901
2537.8625	99.6916
2538.8267	99.6932
2539.7910	99.6949
2540.7551	99.6964
2541.7195	99.6978
2542.6836	99.699
2543.6479	99.7001
2544.6121	99.701
2545.5764	99.7019
2546.5405	99.7028
2547.5049	99.7037
2548.4690	99.7046
2549.4333	99.7054
2550.3975	99.706
2551.3618	99.7065
2552.3259	99.707
2553.2903	99.7076
2554.2544	99.7082
2555.2188	99.7087
2556.1829	99.7091
2557.1472	99.7094
2558.1113	99.7093
2559.0757	99.7091
2560.0398	99.7088
2561.0042	99.7085
2561.9683	99.7081
2562.9326	99.7077
2563.8967	99.7073
2564.8611	99.7068
2565.8252	99.7061
2566.7896	99.7054
2567.7537	99.7046
2568.7180	99.7038
2569.6821	99.7029
2570.6465	99.702
2571.6106	99.701
2572.5750	99.6997
2573.5391	99.6982
2574.5034	99.6966
2575.4675	99.6949
2576.4319	99.6933
2577.3960	99.6918
2578.3604	99.6904
2579.3245	99.6891
2580.2888	99.6879
2581.2529	99.6866
2582.2173	99.6852
2583.1814	99.6837
2584.1458	99.6821
2585.1099	99.6804
2586.0742	99.6787
2587.0383	99.677
2588.0027	99.6753
2588.9668	99.6738
2589.9312	99.6724
2590.8953	99.6712
2591.8596	99.6702
2592.8237	99.6694
2593.7881	99.6688
2594.7522	99.6683
2595.7166	99.6677
2596.6807	99.6671
2597.6450	99.6664
2598.6091	99.6656
2599.5735	99.665
2600.5376	99.6647
2601.5020	99.6646
2602.4661	99.6647
2603.4304	99.6651
2604.3945	99.6656
2605.3589	99.6661
2606.3230	99.6666
2607.2874	99.667
2608.2515	99.6675
2609.2158	99.6681
2610.1799	99.6688
2611.1443	99.6696
2612.1084	99.6704
2613.0728	99.6713
2614.0369	99.6721
2615.0012	99.6729
2615.9653	99.6738
2616.9297	99.6748
2617.8938	99.6757
2618.8582	99.6766
2619.8223	99.6773
2620.7866	99.6779
2621.7507	99.6783
2622.7151	99.6787
2623.6792	99.6791
2624.6436	99.6795
2625.6077	99.6799
2626.5720	99.6803
2627.5361	99.6805
2628.5005	99.6805
2629.4646	99.6803
2630.4290	99.6801
2631.3931	99.6798
2632.3574	99.6797
2633.3215	99.6799
2634.2859	99.6801
2635.2500	99.6804
2636.2144	99.6807
2637.1785	99.681
2638.1428	99.6812
2639.1069	99.6815
2640.0713	99.6819
2641.0354	99.6824
2641.9998	99.6831
2642.9639	99.6839
2643.9282	99.6846
2644.8923	99.6854
2645.8567	99.6863
2646.8208	99.6872
2647.7852	99.6883
2648.7493	99.6895
2649.7136	99.6908
2650.6777	99.6921
2651.6421	99.6933
2652.6062	99.6943
2653.5706	99.6953
2654.5347	99.6962
2655.4990	99.6972
2656.4631	99.6983
2657.4275	99.6996
2658.3916	99.701
2659.3560	99.7025
2660.3201	99.7039
2661.2844	99.7053
2662.2485	99.7067
2663.2129	99.7082
2664.1770	99.7099
2665.1414	99.7117
2666.1055	99.7136
2667.0698	99.7154
2668.0339	99.7172
2668.9983	99.7189
2669.9624	99.7206
2670.9268	99.7224
2671.8909	99.7243
2672.8552	99.7263
2673.8193	99.7285
2674.7837	99.7307
2675.7478	99.7327
2676.7122	99.7347
2677.6763	99.7365
2678.6406	99.7383
2679.6047	99.74
2680.5691	99.7416
2681.5332	99.7431
2682.4976	99.7443
2683.4617	99.7453
2684.4260	99.7459
2685.3901	99.7464
2686.3545	99.7466
2687.3186	99.7469
2688.2830	99.7471
2689.2471	99.7474
2690.2114	99.7476
2691.1755	99.7477
2692.1399	99.7476
2693.1040	99.7472
2694.0684	99.7466
2695.0325	99.7459
2695.9968	99.7451
2696.9609	99.7442
2697.9253	99.7432
2698.8894	99.7422
2699.8538	99.7412
2700.8179	99.7402
2701.7822	99.7394
2702.7463	99.7387
2703.7107	99.7384
2704.6748	99.7383
2705.6392	99.7384
2706.6033	99.7384
2707.5676	99.7383
2708.5317	99.7379
2709.4961	99.7373
2710.4602	99.7365
2711.4246	99.7357
2712.3887	99.7351
2713.3530	99.7347
2714.3171	99.7346
2715.2815	99.7345
2716.2456	99.7346
2717.2100	99.7347
2718.1741	99.7348
2719.1384	99.7351
2720.1025	99.7353
2721.0669	99.7356
2722.0310	99.7358
2722.9954	99.7358
2723.9595	99.7356
2724.9238	99.7354
2725.8879	99.7352
2726.8523	99.7352
2727.8164	99.7356
2728.7808	99.7362
2729.7449	99.7371
2730.7092	99.738
2731.6733	99.7389
2732.6377	99.7396
2733.6018	99.7402
2734.5662	99.7407
2735.5303	99.7412
2736.4946	99.7418
2737.4587	99.7424
2738.4231	99.743
2739.3872	99.7435
2740.3516	99.744
2741.3157	99.7443
2742.2800	99.7446
2743.2441	99.7448
2744.2085	99.745
2745.1726	99.7452
2746.1370	99.7455
2747.1011	99.7456
2748.0654	99.7457
2749.0295	99.7457
2749.9939	99.7456
2750.9580	99.7454
2751.9224	99.7453
2752.8865	99.7453
2753.8508	99.7452
2754.8149	99.7451
2755.7793	99.7449
2756.7434	99.7446
2757.7078	99.7441
2758.6719	99.7437
2759.6362	99.7434
2760.6003	99.7432
2761.5647	99.7431
2762.5288	99.7431
2763.4932	99.7429
2764.4573	99.7424
2765.4216	99.7417
2766.3857	99.7406
2767.3501	99.7393
2768.3142	99.7379
2769.2786	99.7364
2770.2427	99.7348
2771.2070	99.733
2772.1711	99.7312
2773.1355	99.7291
2774.0996	99.7268
2775.0640	99.7244
2776.0281	99.7219
2776.9924	99.7193
2777.9565	99.7165
2778.9209	99.7136
2779.8850	99.7104
2780.8494	99.707
2781.8135	99.7034
2782.7778	99.6999
2783.7419	99.6964
2784.7063	99.693
2785.6704	99.6898
2786.6348	99.6866
2787.5989	99.6832
2788.5632	99.6795
2789.5273	99.6755
2790.4917	99.6712
2791.4558	99.6666
2792.4202	99.662
2793.3843	99.6573
2794.3486	99.6525
2795.3127	99.6475
2796.2771	99.6422
2797.2412	99.6367
2798.2056	99.631
2799.1697	99.625
2800.1340	99.6189
2801.0981	99.6127
2802.0625	99.6063
2803.0266	99.5998
2803.9910	99.593
2804.9551	99.586
2805.9194	99.5788
2806.8835	99.5716
2807.8479	99.5643
2808.8120	99.5572
2809.7764	99.5501
2810.7405	99.5431
2811.7048	99.5361
2812.6689	99.529
2813.6333	99.5217
2814.5974	99.5145
2815.5618	99.5072
2816.5259	99.5
2817.4902	99.4928
2818.4543	99.4854
2819.4187	99.4779
2820.3828	99.4701
2821.3472	99.462
2822.3113	99.4538
2823.2756	99.4453
2824.2397	99.4368
2825.2041	99.4279
2826.1682	99.4188
2827.1326	99.409
2828.0967	99.3985
2829.0610	99.387
2830.0251	99.3746
2830.9895	99.3613
2831.9536	99.3471
2832.9180	99.3319
2833.8821	99.3159
2834.8464	99.299
2835.8105	99.281
2836.7749	99.2619
2837.7390	99.2418
2838.7034	99.2205
2839.6675	99.1983
2840.6318	99.1751
2841.5959	99.1512
2842.5603	99.1267
2843.5244	99.1018
2844.4888	99.0766
2845.4529	99.0513
2846.4172	99.026
2847.3813	99.001
2848.3457	98.9763
2849.3098	98.952
2850.2742	98.9282
2851.2383	98.905
2852.2026	98.8823
2853.1667	98.8603
2854.1311	98.8389
2855.0952	98.8183
2856.0596	98.7985
2857.0237	98.7795
2857.9880	98.7613
2858.9521	98.7436
2859.9165	98.7265
2860.8806	98.7094
2861.8450	98.6924
2862.8091	98.6753
2863.7734	98.6581
2864.7375	98.6407
2865.7019	98.6233
2866.6660	98.6059
2867.6304	98.5884
2868.5945	98.5708
2869.5588	98.5531
2870.5229	98.5352
2871.4873	98.5173
2872.4514	98.4991
2873.4158	98.4809
2874.3799	98.4626
2875.3442	98.4443
2876.3083	98.4259
2877.2727	98.4076
2878.2368	98.3893
2879.2012	98.3712
2880.1653	98.3533
2881.1296	98.3357
2882.0938	98.3183
2883.0581	98.3012
2884.0222	98.2844
2884.9866	98.2677
2885.9507	98.2512
2886.9150	98.2349
2887.8792	98.2188
2888.8435	98.2029
2889.8076	98.1874
2890.7720	98.1723
2891.7361	98.1577
2892.7004	98.1436
2893.6646	98.13
2894.6289	98.1168
2895.5930	98.1041
2896.5574	98.092
2897.5215	98.0806
2898.4858	98.0698
2899.4500	98.0598
2900.4143	98.0505
2901.3784	98.0417
2902.3428	98.0333
2903.3069	98.0251
2904.2712	98.017
2905.2354	98.0087
2906.1997	98.0002
2907.1638	97.9913
2908.1282	97.9821
2909.0923	97.9724
2910.0566	97.9622
2911.0208	97.9516
2911.9851	97.9405
2912.9492	97.9292
2913.9136	97.9177
2914.8777	97.9059
2915.8420	97.8941
2916.8062	97.8821
2917.7705	97.87
2918.7346	97.8582
2919.6990	97.8467
2920.6631	97.8359
2921.6274	97.8263
2922.5916	97.818
2923.5559	97.8115
2924.5200	97.8069
2925.4844	97.8044
2926.4485	97.8043
2927.4128	97.8064
2928.3770	97.8108
2929.3413	97.8174
2930.3054	97.826
2931.2698	97.8365
2932.2339	97.8487
2933.1982	97.8625
2934.1624	97.8778
2935.1267	97.8944
2936.0908	97.9121
2937.0552	97.9306
2938.0193	97.9497
2938.9836	97.969
2939.9478	97.9882
2940.9121	98.0069
2941.8762	98.0248
2942.8406	98.0416
2943.8047	98.0567
2944.7690	98.0699
2945.7332	98.0808
2946.6975	98.089
2947.6616	98.0944
2948.6260	98.0967
2949.5901	98.0958
2950.5544	98.0916
2951.5186	98.0837
2952.4829	98.0719
2953.4470	98.0559
2954.4114	98.0357
2955.3755	98.0111
2956.3398	97.9822
2957.3040	97.9493
2958.2683	97.9127
2959.2324	97.8724
2960.1968	97.829
2961.1609	97.783
2962.1252	97.7348
2963.0894	97.6852
2964.0537	97.6351
2965.0178	97.5853
2965.9822	97.5367
2966.9463	97.4901
2967.9106	97.4462
2968.8748	97.4059
2969.8391	97.3697
2970.8032	97.3386
2971.7676	97.3134
2972.7317	97.2947
2973.6960	97.2831
2974.6602	97.2791
2975.6245	97.2828
2976.5886	97.2944
2977.5530	97.3135
2978.5171	97.3401
2979.4814	97.3736
2980.4456	97.4137
2981.4099	97.4596
2982.3740	97.5106
2983.3384	97.5658
2984.3025	97.6244
2985.2668	97.6855
2986.2310	97.7484
2987.1953	97.8125
2988.1594	97.877
2989.1238	97.9413
2990.0879	98.0046
2991.0522	98.0665
2992.0164	98.1262
2992.9807	98.1833
2993.9448	98.2374
2994.9092	98.2884
2995.8733	98.336
2996.8376	98.3802
2997.8018	98.4211
2998.7661	98.4588
2999.7302	98.4936
3000.6946	98.5257
3001.6587	98.5553
3002.6230	98.5826
3003.5872	98.6075
3004.5515	98.6301
3005.5156	98.6507
3006.4800	98.6693
3007.4441	98.6861
3008.4084	98.7015
3009.3726	98.7153
3010.3369	98.7278
3011.3010	98.7388
3012.2654	98.7483
3013.2295	98.7565
3014.1938	98.7635
3015.1580	98.7695
3016.1223	98.7745
3017.0864	98.7787
3018.0508	98.7819
3019.0149	98.784
3019.9792	98.7851
3020.9434	98.7851
3021.9077	98.7843
3022.8718	98.7829
3023.8362	98.781
3024.8003	98.7787
3025.7646	98.7759
3026.7288	98.7727
3027.6931	98.7689
3028.6572	98.7647
3029.6216	98.7602
3030.5857	98.7555
3031.5500	98.7508
3032.5142	98.7458
3033.4785	98.7407
3034.4426	98.735
3035.4070	98.7288
3036.3711	98.722
3037.3354	98.7147
3038.2996	98.707
3039.2639	98.6992
3040.2280	98.6912
3041.1924	98.683
3042.1565	98.6745
3043.1208	98.6654
3044.0850	98.6557
3045.0493	98.6453
3046.0134	98.6344
3046.9778	98.6229
3047.9419	98.6112
3048.9063	98.5992
3049.8704	98.587
3050.8347	98.5745
3051.7988	98.5618
3052.7632	98.5489
3053.7273	98.5358
3054.6917	98.5227
3055.6558	98.5095
3056.6201	98.4961
3057.5842	98.4827
3058.5486	98.469
3059.5127	98.4552
3060.4771	98.4414
3061.4412	98.4277
3062.4055	98.4143
3063.3696	98.4013
3064.3340	98.3888
3065.2981	98.3766
3066.2625	98.3645
3067.2266	98.3522
3068.1909	98.3397
3069.1550	98.3268
3070.1194	98.3135
3071.0835	98.3
3072.0479	98.2863
3073.0120	98.2726
3073.9763	98.2588
3074.9404	98.245
3075.9048	98.2311
3076.8689	98.2169
3077.8333	98.2024
3078.7974	98.1873
3079.7617	98.1716
3080.7258	98.1552
3081.6902	98.138
3082.6543	98.1201
3083.6187	98.1016
3084.5828	98.0827
3085.5471	98.0635
3086.5112	98.0441
3087.4756	98.0246
3088.4397	98.005
3089.4041	97.9855
3090.3682	97.9659
3091.3325	97.9463
3092.2966	97.9265
3093.2610	97.9066
3094.2251	97.8864
3095.1895	97.866
3096.1536	97.8455
3097.1179	97.825
3098.0820	97.8048
3099.0464	97.7848
3100.0105	97.7652
3100.9749	97.7458
3101.9390	97.7265
3102.9033	97.7074
3103.8674	97.6882
3104.8318	97.669
3105.7959	97.6497
3106.7603	97.6303
3107.7244	97.6109
3108.6887	97.5913
3109.6528	97.5715
3110.6172	97.5514
3111.5813	97.5311
3112.5457	97.5105
3113.5098	97.4898
3114.4741	97.4689
3115.4382	97.448
3116.4026	97.4269
3117.3667	97.4055
3118.3311	97.3837
3119.2952	97.3613
3120.2595	97.3385
3121.2236	97.3152
3122.1880	97.2915
3123.1521	97.2675
3124.1165	97.2434
3125.0806	97.2191
3126.0449	97.1945
3127.0090	97.1697
3127.9734	97.1446
3128.9375	97.1192
3129.9019	97.0936
3130.8660	97.0679
3131.8303	97.0421
3132.7944	97.0164
3133.7588	96.9908
3134.7229	96.9651
3135.6873	96.9393
3136.6514	96.9135
3137.6157	96.8876
3138.5798	96.8616
3139.5442	96.8355
3140.5083	96.8094
3141.4727	96.783
3142.4368	96.7563
3143.4011	96.7292
3144.3652	96.7017
3145.3296	96.6737
3146.2937	96.6454
3147.2581	96.6169
3148.2222	96.5883
3149.1865	96.5595
3150.1506	96.5305
3151.1150	96.5012
3152.0791	96.4713
3153.0435	96.4408
3154.0076	96.4096
3154.9719	96.3779
3155.9360	96.3457
3156.9004	96.3131
3157.8645	96.2802
3158.8289	96.2472
3159.7930	96.2139
3160.7573	96.1806
3161.7214	96.1471
3162.6858	96.1136
3163.6499	96.08
3164.6143	96.0463
3165.5784	96.0125
3166.5427	95.9785
3167.5068	95.9441
3168.4712	95.9094
3169.4353	95.8744
3170.3997	95.8391
3171.3638	95.8035
3172.3281	95.7679
3173.2922	95.7323
3174.2566	95.6968
3175.2207	95.6611
3176.1851	95.6253
3177.1492	95.5892
3178.1135	95.5526
3179.0776	95.5155
3180.0420	95.4781
3181.0061	95.4402
3181.9705	95.4022
3182.9346	95.3639
3183.8989	95.3255
3184.8630	95.2869
3185.8274	95.248
3186.7915	95.209
3187.7559	95.1697
3188.7200	95.1302
3189.6843	95.0906
3190.6484	95.051
3191.6128	95.0114
3192.5769	94.9718
3193.5413	94.9322
3194.5054	94.8927
3195.4697	94.8534
3196.4338	94.8141
3197.3982	94.7749
3198.3623	94.7359
3199.3267	94.697
3200.2908	94.6581
3201.2551	94.6191
3202.2192	94.5802
3203.1836	94.5411
3204.1477	94.502
3205.1121	94.4629
3206.0762	94.4238
3207.0405	94.3848
3208.0046	94.3459
3208.9690	94.307
3209.9331	94.2681
3210.8975	94.229
3211.8616	94.1897
3212.8259	94.1503
3213.7900	94.1109
3214.7544	94.0714
3215.7185	94.0321
3216.6829	93.993
3217.6470	93.9542
3218.6113	93.9156
3219.5754	93.8771
3220.5398	93.8386
3221.5039	93.8002
3222.4683	93.7617
3223.4324	93.7233
3224.3967	93.6849
3225.3608	93.6465
3226.3252	93.6082
3227.2893	93.5699
3228.2537	93.5318
3229.2178	93.4939
3230.1821	93.4562
3231.1462	93.4187
3232.1106	93.3813
3233.0747	93.344
3234.0391	93.3067
3235.0032	93.2693
3235.9675	93.2318
3236.9316	93.1942
3237.8960	93.1564
3238.8601	93.1187
3239.8245	93.081
3240.7886	93.0435
3241.7529	93.0064
3242.7170	92.9696
3243.6814	92.9331
3244.6455	92.897
3245.6099	92.8611
3246.5740	92.8254
3247.5383	92.7897
3248.5024	92.7542
3249.4668	92.7189
3250.4309	92.6839
3251.3953	92.6493
3252.3594	92.6153
3253.3237	92.5817
3254.2878	92.5484
3255.2522	92.5156
3256.2163	92.4831
3257.1807	92.451
3258.1448	92.4193
3259.1091	92.3881
3260.0732	92.3573
3261.0376	92.3268
3262.0017	92.2963
3262.9661	92.2659
3263.9302	92.2354
3264.8945	92.2048
3265.8586	92.1741
3266.8230	92.1434
3267.7871	92.1125
3268.7515	92.0814
3269.7156	92.0499
3270.6799	92.0181
3271.6440	91.9859
3272.6084	91.9533
3273.5725	91.9205
3274.5369	91.8877
3275.5010	91.8548
3276.4653	91.822
3277.4294	91.7891
3278.3938	91.7561
3279.3579	91.7231
3280.3223	91.69
3281.2864	91.6569
3282.2507	91.6238
3283.2148	91.5907
3284.1792	91.5576
3285.1433	91.5244
3286.1077	91.4913
3287.0718	91.4582
3288.0361	91.4252
3289.0002	91.3925
3289.9646	91.36
3290.9287	91.3277
3291.8931	91.2953
3292.8572	91.2627
3293.8215	91.2295
3294.7856	91.1957
3295.7500	91.1611
3296.7141	91.1256
3297.6785	91.0893
3298.6426	91.0523
3299.6069	91.0147
3300.5710	90.9768
3301.5354	90.9387
3302.4995	90.9005
3303.4639	90.8621
3304.4280	90.8232
3305.3923	90.7838
3306.3564	90.7436
3307.3208	90.7025
3308.2849	90.6606
3309.2493	90.618
3310.2134	90.5749
3311.1777	90.5315
3312.1418	90.4879
3313.1062	90.4443
3314.0703	90.4007
3315.0347	90.3571
3315.9988	90.3133
3316.9631	90.2694
3317.9272	90.2253
3318.8916	90.181
3319.8557	90.1364
3320.8201	90.0917
3321.7842	90.0468
3322.7485	90.0016
3323.7126	89.9563
3324.6770	89.9108
3325.6411	89.865
3326.6055	89.8189
3327.5696	89.7726
3328.5339	89.7259
3329.4980	89.6787
3330.4624	89.6312
3331.4265	89.5832
3332.3909	89.5349
3333.3550	89.4864
3334.3193	89.4378
3335.2834	89.3891
3336.2478	89.3402
3337.2119	89.2909
3338.1763	89.2408
3339.1404	89.1899
3340.1047	89.1381
3341.0688	89.0856
3342.0332	89.0327
3342.9973	88.9795
3343.9617	88.9264
3344.9258	88.8734
3345.8901	88.8205
3346.8542	88.7677
3347.8186	88.7151
3348.7827	88.6626
3349.7471	88.6102
3350.7112	88.5578
3351.6755	88.5055
3352.6396	88.4533
3353.6040	88.4011
3354.5681	88.3491
3355.5325	88.2973
3356.4966	88.2459
3357.4609	88.195
3358.4250	88.1448
3359.3894	88.0952
3360.3535	88.0464
3361.3179	87.9981
3362.2820	87.9504
3363.2463	87.903
3364.2104	87.856
3365.1748	87.809
3366.1389	87.7622
3367.1033	87.7155
3368.0674	87.669
3369.0317	87.6226
3369.9958	87.5765
3370.9602	87.5307
3371.9243	87.4853
3372.8887	87.4405
3373.8528	87.3963
3374.8171	87.3528
3375.7813	87.3101
3376.7456	87.268
3377.7097	87.2266
3378.6741	87.1857
3379.6382	87.1454
3380.6025	87.1056
3381.5667	87.0664
3382.5310	87.028
3383.4951	86.9906
3384.4595	86.9541
3385.4236	86.9188
3386.3879	86.8847
3387.3521	86.8518
3388.3164	86.8201
3389.2805	86.7894
3390.2449	86.7596
3391.2090	86.7304
3392.1733	86.7019
3393.1375	86.674
3394.1018	86.6467
3395.0659	86.6202
3396.0303	86.5945
3396.9944	86.5696
3397.9587	86.5454
3398.9229	86.5217
3399.8872	86.4984
3400.8513	86.4755
3401.8157	86.4529
3402.7798	86.4307
3403.7441	86.409
3404.7083	86.3878
3405.6726	86.367
3406.6367	86.3467
3407.6011	86.3268
3408.5652	86.3075
3409.5295	86.2888
3410.4937	86.2709
3411.4580	86.2538
3412.4221	86.2377
3413.3865	86.2224
3414.3506	86.2079
3415.3149	86.1942
3416.2791	86.1816
3417.2434	86.1703
3418.2075	86.1603
3419.1719	86.1518
3420.1360	86.1447
3421.1003	86.1387
3422.0645	86.1337
3423.0288	86.1294
3423.9929	86.1257
3424.9573	86.1228
3425.9214	86.1205
3426.8857	86.1191
3427.8499	86.1185
3428.8142	86.1188
3429.7783	86.1202
3430.7427	86.1226
3431.7068	86.126
3432.6711	86.1304
3433.6353	86.1356
3434.5996	86.1416
3435.5637	86.1481
3436.5281	86.1552
3437.4922	86.163
3438.4565	86.1715
3439.4207	86.1808
3440.3850	86.1912
3441.3491	86.2026
3442.3135	86.2152
3443.2776	86.2292
3444.2419	86.2448
3445.2061	86.262
3446.1704	86.2805
3447.1345	86.3002
3448.0989	86.3207
3449.0630	86.3417
3450.0273	86.3631
3450.9915	86.3851
3451.9558	86.4077
3452.9199	86.431
3453.8843	86.4552
3454.8484	86.4802
3455.8127	86.506
3456.7769	86.5327
3457.7412	86.5603
3458.7053	86.5887
3459.6697	86.6179
3460.6338	86.6475
3461.5981	86.6773
3462.5623	86.7073
3463.5266	86.7373
3464.4907	86.7676
3465.4551	86.7983
3466.4192	86.8296
3467.3835	86.8613
3468.3477	86.8935
3469.3120	86.9262
3470.2761	86.9593
3471.2405	86.9932
3472.2046	87.0279
3473.1689	87.0634
3474.1331	87.0996
3475.0974	87.1361
3476.0615	87.1726
3477.0259	87.2092
3477.9900	87.2458
3478.9543	87.2828
3479.9185	87.3201
3480.8828	87.3576
3481.8469	87.395
3482.8113	87.4318
3483.7754	87.4682
3484.7397	87.5043
3485.7039	87.5408
3486.6682	87.5779
3487.6323	87.6155
3488.5967	87.6532
3489.5608	87.6906
3490.5251	87.7272
3491.4893	87.7631
3492.4536	87.7987
3493.4177	87.8345
3494.3821	87.8709
3495.3462	87.9082
3496.3105	87.9462
3497.2747	87.9848
3498.2390	88.0241
3499.2031	88.0643
3500.1675	88.1059
3501.1316	88.1489
3502.0959	88.193
3503.0601	88.2376
3504.0244	88.2819
3504.9885	88.3256
3505.9529	88.3686
3506.9170	88.4117
3507.8813	88.4555
3508.8455	88.5004
3509.8098	88.5465
3510.7739	88.5934
3511.7383	88.6406
3512.7024	88.6877
3513.6667	88.7346
3514.6309	88.7811
3515.5952	88.8274
3516.5593	88.8734
3517.5237	88.9193
3518.4878	88.9652
3519.4521	89.0115
3520.4163	89.0585
3521.3806	89.1068
3522.3447	89.1564
3523.3091	89.2071
3524.2732	89.2584
3525.2375	89.3097
3526.2017	89.3603
3527.1660	89.4103
3528.1301	89.4596
3529.0945	89.5086
3530.0586	89.5576
3531.0229	89.6068
3531.9871	89.6561
3532.9514	89.706
3533.9155	89.7566
3534.8799	89.808
3535.8440	89.8602
3536.8083	89.9129
3537.7725	89.9652
3538.7368	90.0167
3539.7009	90.0671
3540.6653	90.1167
3541.6294	90.1663
3542.5938	90.2168
3543.5579	90.2683
3544.5222	90.3206
3545.4863	90.3724
3546.4507	90.4224
3547.4148	90.4697
3548.3792	90.5149
3549.3433	90.5592
3550.3076	90.6042
3551.2717	90.651
3552.2361	90.6994
3553.2002	90.7485
3554.1646	90.7974
3555.1287	90.8457
3556.0930	90.8934
3557.0571	90.9412
3558.0215	90.9898
3558.9856	91.0392
3559.9500	91.0894
3560.9141	91.1401
3561.8784	91.1916
3562.8425	91.2451
3563.8069	91.3019
3564.7710	91.3632
3565.7354	91.4288
3566.6995	91.4968
3567.6638	91.5643
3568.6279	91.6288
3569.5923	91.6894
3570.5564	91.7469
3571.5208	91.8029
3572.4849	91.8589
3573.4492	91.9155
3574.4133	91.9724
3575.3777	92.0291
3576.3418	92.0853
3577.3062	92.1411
3578.2703	92.1966
3579.2346	92.2518
3580.1987	92.3064
3581.1631	92.36
3582.1272	92.4125
3583.0916	92.4646
3584.0557	92.518
3585.0200	92.5745
3585.9841	92.6353
3586.9485	92.7002
3587.9126	92.7674
3588.8770	92.8345
3589.8411	92.9
3590.8054	92.9641
3591.7695	93.0278
3592.7339	93.0925
3593.6980	93.159
3594.6624	93.2272
3595.6265	93.2962
3596.5908	93.365
3597.5549	93.4326
3598.5193	93.4986
3599.4834	93.563
3600.4478	93.6256
3601.4119	93.6865
3602.3762	93.7461
3603.3403	93.8049
3604.3047	93.8637
3605.2688	93.9232
3606.2332	93.9842
3607.1973	94.0463
3608.1616	94.1082
3609.1257	94.1686
3610.0901	94.2273
3611.0542	94.2853
3612.0186	94.3442
3612.9827	94.4053
3613.9470	94.4692
3614.9111	94.5362
3615.8755	94.6067
3616.8396	94.6809
3617.8040	94.7589
3618.7681	94.8397
3619.7324	94.9215
3620.6965	95.0018
3621.6609	95.0787
3622.6250	95.1515
3623.5894	95.2212
3624.5535	95.2898
3625.5178	95.3598
3626.4819	95.4328
3627.4463	95.5085
3628.4104	95.5838
3629.3748	95.6545
3630.3389	95.7179
3631.3032	95.7747
3632.2673	95.8275
3633.2317	95.8787
3634.1958	95.9292
3635.1602	95.9784
3636.1243	96.0253
3637.0886	96.0696
3638.0527	96.1124
3639.0171	96.1557
3639.9812	96.2012
3640.9456	96.2493
3641.9097	96.2994
3642.8740	96.3507
3643.8381	96.4028
3644.8025	96.4566
3645.7666	96.514
3646.7310	96.5776
3647.6951	96.6484
3648.6594	96.7241
3649.6235	96.7992
3650.5879	96.8682
3651.5520	96.929
3652.5164	96.9824
3653.4805	97.0306
3654.4448	97.0757
3655.4089	97.1184
3656.3733	97.1585
3657.3374	97.1958
3658.3018	97.2304
3659.2659	97.2636
3660.2302	97.296
3661.1943	97.3278
3662.1587	97.3582
3663.1228	97.3857
3664.0872	97.4092
3665.0513	97.4282
3666.0156	97.444
3666.9797	97.4591
3667.9441	97.4769
3668.9082	97.4988
3669.8726	97.5247
3670.8367	97.5536
3671.8010	97.5855
3672.7651	97.6218
3673.7295	97.6638
3674.6936	97.7116
3675.6580	97.7631
3676.6221	97.8145
3677.5864	97.8623
3678.5505	97.9043
3679.5149	97.9399
3680.4790	97.9697
3681.4434	97.995
3682.4075	98.0169
3683.3718	98.0369
3684.3359	98.0566
3685.3003	98.0777
3686.2644	98.1017
3687.2288	98.1297
3688.1929	98.1608
3689.1572	98.192
3690.1213	98.219
3691.0857	98.2376
3692.0498	98.2466
3693.0142	98.248
3693.9783	98.2458
3694.9426	98.2446
3695.9067	98.2476
3696.8711	98.2562
3697.8352	98.2701
3698.7996	98.2883
3699.7637	98.3095
3700.7280	98.3318
3701.6921	98.3532
3702.6565	98.3711
3703.6206	98.3833
3704.5850	98.389
3705.5491	98.389
3706.5134	98.386
3707.4775	98.3844
3708.4419	98.3881
3709.4060	98.3991
3710.3704	98.416
3711.3345	98.4345
3712.2988	98.4493
3713.2629	98.4561
3714.2273	98.4534
3715.1914	98.4418
3716.1558	98.4238
3717.1199	98.4031
3718.0842	98.3834
3719.0483	98.3678
3720.0127	98.3575
3720.9768	98.3528
3721.9412	98.3521
3722.9053	98.3536
3723.8696	98.3544
3724.8337	98.3522
3725.7981	98.3458
3726.7622	98.3353
3727.7266	98.3219
3728.6907	98.3073
3729.6550	98.2939
3730.6191	98.2847
3731.5835	98.2828
3732.5476	98.2909
3733.5120	98.3107
3734.4761	98.3409
3735.4404	98.3771
3736.4045	98.4134
3737.3689	98.4447
3738.3330	98.4689
3739.2974	98.4872
3740.2615	98.5032
3741.2258	98.5217
3742.1899	98.5468
3743.1543	98.58
3744.1184	98.6196
3745.0828	98.6617
3746.0469	98.703
3747.0112	98.7426
3747.9753	98.7812
3748.9397	98.82
3749.9038	98.8584
3750.8682	98.8938
3751.8323	98.9224
3752.7966	98.9422
3753.7607	98.9546
3754.7251	98.9637
3755.6892	98.9731
3756.6536	98.9851
3757.6177	98.9991
3758.5820	99.0126
3759.5461	99.0222
3760.5105	99.0256
3761.4746	99.0227
3762.4390	99.0156
3763.4031	99.0077
3764.3674	99.0015
3765.3315	98.9978
3766.2959	98.9958
3767.2600	98.9944
3768.2244	98.9928
3769.1885	98.9915
3770.1528	98.9912
3771.1169	98.9923
3772.0813	98.9941
3773.0454	98.9955
3774.0098	98.9955
3774.9739	98.9941
3775.9382	98.9922
3776.9023	98.9908
3777.8667	98.9905
3778.8308	98.9908
3779.7952	98.9899
3780.7593	98.9863
3781.7236	98.9792
3782.6877	98.9692
3783.6521	98.9577
3784.6162	98.9459
3785.5806	98.9341
3786.5447	98.9223
3787.5090	98.9101
3788.4731	98.8984
3789.4375	98.8886
3790.4016	98.8825
3791.3660	98.8809
3792.3301	98.8837
3793.2944	98.8892
3794.2585	98.8955
3795.2229	98.9009
3796.1870	98.9054
3797.1514	98.9104
3798.1155	98.9179
3799.0798	98.9295
3800.0439	98.9448
3801.0083	98.9618
3801.9724	98.9778
3802.9368	98.9918
3803.9009	99.0045
3804.8652	99.0174
3805.8293	99.0317
3806.7937	99.0467
3807.7578	99.0601
3808.7222	99.0693
3809.6863	99.073
3810.6506	99.072
3811.6147	99.0686
3812.5791	99.0655
3813.5432	99.0646
3814.5076	99.0663
3815.4717	99.0689
3816.4360	99.0702
3817.4001	99.069
3818.3645	99.0658
3819.3286	99.0627
3820.2930	99.0612
3821.2571	99.0613
3822.2214	99.0613
3823.1855	99.0593
3824.1499	99.0546
3825.1140	99.0485
3826.0784	99.0433
3827.0425	99.0411
3828.0068	99.043
3828.9709	99.0477
3829.9353	99.0526
3830.8994	99.0545
3831.8638	99.0507
3832.8279	99.0402
3833.7922	99.0246
3834.7563	99.0078
3835.7207	98.9947
3836.6848	98.9887
3837.6492	98.9894
3838.6133	98.9946
3839.5776	99.0014
3840.5417	99.0076
3841.5061	99.0121
3842.4702	99.0139
3843.4346	99.012
3844.3987	99.0061
3845.3630	98.9962
3846.3271	98.9831
3847.2915	98.9685
3848.2556	98.9549
3849.2200	98.9457
3850.1841	98.9442
3851.1484	98.953
3852.1125	98.9721
3853.0769	98.997
3854.0410	99.0201
3855.0054	99.0347
3855.9697	99.0388
3856.9338	99.0341
3857.8982	99.0243
3858.8623	99.0134
3859.8267	99.0042
3860.7908	98.9987
3861.7551	98.9977
3862.7192	99.0007
3863.6836	99.0065
3864.6477	99.0136
3865.6121	99.0209
3866.5762	99.0277
3867.5405	99.0337
3868.5046	99.038
3869.4690	99.0391
3870.4331	99.0357
3871.3975	99.0277
3872.3616	99.0173
3873.3259	99.0073
3874.2900	98.9996
3875.2544	98.9951
3876.2185	98.9934
3877.1829	98.9935
3878.1470	98.9939
3879.1113	98.9932
3880.0754	98.9902
3881.0398	98.9846
3882.0039	98.9769
3882.9683	98.9682
3883.9324	98.9593
3884.8967	98.9501
3885.8608	98.9404
3886.8252	98.93
3887.7893	98.9194
3888.7537	98.9101
3889.7178	98.9038
3890.6821	98.9011
3891.6462	98.9016
3892.6106	98.9033
3893.5747	98.9043
3894.5391	98.9037
3895.5032	98.9017
3896.4675	98.8996
3897.4316	98.8993
3898.3960	98.9023
3899.3601	98.9097
3900.3245	98.922
3901.2886	98.9383
3902.2529	98.9572
3903.2170	98.9767
3904.1814	98.9947
3905.1455	99.0092
3906.1099	99.0194
3907.0740	99.0248
3908.0383	99.0258
3909.0024	99.0235
3909.9668	99.0189
3910.9309	99.0133
3911.8953	99.0078
3912.8594	99.0033
3913.8237	99.0004
3914.7878	98.9993
3915.7522	98.9997
3916.7163	99.0008
3917.6807	99.0012
3918.6448	98.9995
3919.6091	98.9951
3920.5732	98.9883
3921.5376	98.9803
3922.5017	98.9729
3923.4661	98.9676
3924.4302	98.965
3925.3945	98.9648
3926.3586	98.9663
3927.3230	98.9689
3928.2871	98.9725
3929.2515	98.9772
3930.2156	98.9834
3931.1799	98.9906
3932.1440	98.998
3933.1084	99.0042
3934.0725	99.0081
3935.0369	99.0094
3936.0010	99.0085
3936.9653	99.0065
3937.9294	99.0048
3938.8938	99.0041
3939.8579	99.0048
3940.8223	99.0068
3941.7864	99.0096
3942.7507	99.0128
3943.7148	99.0163
3944.6792	99.02
3945.6433	99.0243
3946.6077	99.0293
3947.5718	99.0349
3948.5361	99.041
3949.5002	99.0469
3950.4646	99.0525
3951.4287	99.0576
3952.3931	99.0625
3953.3572	99.0673
3954.3215	99.0722
3955.2856	99.0773
3956.2500	99.0824
3957.2141	99.0871
3958.1785	99.0915
3959.1426	99.0955
3960.1069	99.0993
3961.0710	99.1031
3962.0354	99.1069
3962.9995	99.1106
3963.9639	99.114
3964.9280	99.1168
3965.8923	99.1189
3966.8564	99.1203
3967.8208	99.1214
3968.7849	99.1225
3969.7493	99.1239
3970.7134	99.1257
3971.6777	99.1279
3972.6418	99.1304
3973.6062	99.1331
3974.5703	99.1357
3975.5347	99.1383
3976.4988	99.1405
3977.4631	99.1425
3978.4272	99.1442
3979.3916	99.1458
3980.3557	99.1477
3981.3201	99.1499
3982.2842	99.1526
3983.2485	99.1557
3984.2126	99.159
3985.1770	99.1623
3986.1411	99.1656
3987.1055	99.1687
3988.0696	99.1718
3989.0339	99.175
3989.9980	99.1784
3990.9624	99.1821
3991.9265	99.1862
3992.8909	99.1904
3993.8550	99.1946
3994.8193	99.1987
3995.7834	99.2027
3996.7478	99.2065
3997.7119	99.21
3998.6763	99.2131
3999.6404	99.2157
4000.6047	99.2178

##### Extended Information
[Comment]
Sample Name
Comment
User
Division
Company	Compaq

[Data Information]
Creation Date	1/21/2020 11:59 AM
Data array type	Linear data array
Horizontal	Wavenumber [cm-1]
Vertical	%T
Start	399.193 cm-1
End	4000.6 cm-1
Data pitch	0.964233 cm-1
Data points	3736    

[Measurement Information]
Model Name	FT/IR-6100typeA
Serial Number	A009061020

Light Source	Standard
Detector	TGS
Accumulation	32
Resolution	4 cm-1
Zero Filling	On
Apodization	Cosine
Gain	Auto (4)
Aperture	Auto (7.1 mm)
Scanning Speed	Auto (2 mm/sec)
Filter	Auto (10000 Hz)

